 Quantities needed for Eq. (17) of photo_residue_V02.pdf
 (Contribution from the Non-pole part)                  
 =======================================================
 
 Pole position         [MeV]:     1599.48       -30.8891    
 On-shell Residue [MeV^(-1)] (piN, etaN, piD(1), piD(2) --> piN): 
  -0.571941E-05  -0.247853E-04    0.00000        0.00000        0.00000        0.00000       0.193457E-04  -0.484949E-04
 Coupling constants x 1000 (you dont need them):
    3.13985       -3.94690        0.00000        0.00000        0.00000        0.00000        9.91274       -2.98431    
 Off->on-shell Residues [MeV^(-1)] (piN, etaN, piD(1), piD(2) --> piN_on): 
 (This is also written to separate files to make readout easier)
 Order: Re, Im xgaus [MeV]; Re, Im wgaus; 3 x Re, Im Residues
    8.02308       -1.46706        20.3368       -3.71869      -0.677151E-04   0.190177E-04    0.00000        0.00000        0.00000        0.00000      -0.137780E-03  -0.462667E-04
    40.1699       -7.34526        42.7521       -7.81742      -0.668788E-04   0.175952E-04    0.00000        0.00000        0.00000        0.00000      -0.134699E-03  -0.476883E-04
    90.6345       -16.5729        56.6305       -10.3552      -0.640935E-04   0.120768E-04    0.00000        0.00000        0.00000        0.00000      -0.123499E-03  -0.537378E-04
    150.466       -27.5134        61.6887       -11.2801      -0.595305E-04  -0.546812E-05    0.00000        0.00000        0.00000        0.00000      -0.950620E-04  -0.779650E-04
    211.725       -38.7149        59.8998       -10.9530      -0.223403E-04  -0.623071E-05    0.00000        0.00000        0.00000        0.00000      -0.315728E-04  -0.350387E-04
    268.824       -49.1558        53.7734       -9.83273      -0.235624E-04   0.549359E-05    0.00000        0.00000        0.00000        0.00000      -0.473471E-04  -0.173799E-04
    318.559       -58.2501        45.4917       -8.31837      -0.232352E-04  -0.735766E-06    0.00000        0.00000        0.00000        0.00000      -0.390441E-04  -0.274784E-04
    359.655       -65.7647        36.7405       -6.71818      -0.178967E-04  -0.545519E-05    0.00000        0.00000        0.00000        0.00000      -0.241241E-04  -0.291245E-04
    392.324       -71.7383        28.8349       -5.27260      -0.134260E-04  -0.795058E-05    0.00000        0.00000        0.00000        0.00000      -0.132819E-04  -0.281448E-04
    417.980       -76.4297        22.8921       -4.18593      -0.101366E-04  -0.952630E-05    0.00000        0.00000        0.00000        0.00000      -0.558191E-05  -0.271266E-04
    439.110       -80.2934        19.9548       -3.64884      -0.756970E-05  -0.107032E-04    0.00000        0.00000        0.00000        0.00000       0.310390E-06  -0.263530E-04
    459.229       -83.9722        21.0322       -3.84584      -0.523852E-05  -0.117944E-04    0.00000        0.00000        0.00000        0.00000       0.558944E-05  -0.257355E-04
    482.826       -88.2871        27.0580       -4.94769      -0.266949E-05  -0.130901E-04    0.00000        0.00000        0.00000        0.00000       0.113988E-04  -0.251908E-04
    515.259       -94.2176        38.8224       -7.09886       0.504197E-06  -0.149057E-04    0.00000        0.00000        0.00000        0.00000       0.187271E-04  -0.247732E-04
    562.617       -102.877        57.0359       -10.4293       0.433738E-05  -0.175129E-04    0.00000        0.00000        0.00000        0.00000       0.280511E-04  -0.248111E-04
    631.837       -115.534        82.8203       -15.1441       0.831338E-05  -0.209545E-04    0.00000        0.00000        0.00000        0.00000       0.386484E-04  -0.259957E-04
    731.692       -133.793        119.052       -21.7693       0.110895E-04  -0.246502E-04    0.00000        0.00000        0.00000        0.00000       0.475943E-04  -0.289824E-04
    875.839       -160.151        173.326       -31.6934       0.108442E-04  -0.266610E-04    0.00000        0.00000        0.00000        0.00000       0.495020E-04  -0.326473E-04
    1090.47       -199.398        264.883       -48.4352       0.727855E-05  -0.238679E-04    0.00000        0.00000        0.00000        0.00000       0.401908E-04  -0.320464E-04
    1434.02       -262.217        444.453       -81.2703       0.330859E-05  -0.156963E-04    0.00000        0.00000        0.00000        0.00000       0.239244E-04  -0.227943E-04
    2056.51       -376.043        866.333       -158.413       0.133826E-05  -0.703926E-05    0.00000        0.00000        0.00000        0.00000       0.104854E-04  -0.103910E-04
    3430.73       -627.325        2141.39       -391.564       0.428145E-06  -0.196389E-05    0.00000        0.00000        0.00000        0.00000       0.302001E-05  -0.283512E-05
    7710.43       -1409.89        8160.18       -1492.13       0.613929E-07  -0.210291E-06    0.00000        0.00000        0.00000        0.00000       0.350187E-06  -0.285557E-06
    38389.0       -7019.61        97145.7       -17763.6       0.136261E-08  -0.258094E-08    0.00000        0.00000        0.00000        0.00000       0.534222E-08  -0.280105E-08
 Next, we write the value of delta G from Eq. (15) from photo_residue_V02.pdf
 at the pole position in the lower half plane zo.
 They are given regardless if the resonance couples to the
 corresponding channels; if not, set delta G to zero!
 Also, set them to zero if Re(z_0)<threshold of a channel!
dG_piN (z_0) :    -80937.9      -0.113900E+07
dG_etaN(z_0) :    -112829.       -685833.    
dG_piD (z_0) :    -54776.1       -320341.    
 
 Quantities needed for Eqs. (19,21)                     
 (Contribution from the Pole part)                      
 =======================================================
 
 A=A_1 [Eq. (19), 1 Reson.] and A_2 [Eq. (21), 2 Reson.]
         A_1 =    0.237325E-02  -0.136680E-02
         A_2 =    0.238404E-07  -0.163362E-07
 These values can be tested: Multiplied with Gamma^c,   
 they must give the hadronic on-shell residues quoted   
 above. The relative deviations in % are                
 (order: see above; a NAN means the residues is zero):  
   0.584433                NaN            NaN   0.946714E-02
 Error may become large in some occasions if residue      
 itself is tiny. For larger residues, error is always tiny.
